T(K),a,da/dT
319.15,0.00000000,
321.65,0.00176540,0.00070616
324.15,0.00356367,0.00071932
326.65,0.00539490,0.00073271
329.65,0.00763383,0.00074506
332.4,0.00972189,0.00075328
336.65,0.01300206,0.00075695
339.4,0.01514723,0.00075779
341.9,0.01710352,0.00075731
344.4,0.01905735,0.00075657
347.15,0.02119343,0.00075586
348.65,0.02234879,0.00075974
349.9,0.02330479,0.00077527
350.9,0.02406474,0.00079813
351.9,0.02482041,0.00082204
352.4,0.02519677,0.00084365
352.65,0.02538464,0.00085525
352.9,0.02557231,0.00087000
353.65,0.02613450,0.00088415
355.4,0.02744709,0.00089766
357.9,0.02937108,0.00089239
359.4,0.03060647,0.00090430
360.9,0.03196048,0.00091543
362.65,0.03366503,0.00092282
364.65,0.03574590,0.00092022
365.9,0.03709775,0.00092225
367.15,0.03847415,0.00091631
368.15,0.03961489,0.00090152
369.4,0.04101020,0.00088736
370.15,0.04187602,0.00087088
370.65,0.04239740,0.00085761
371.15,0.04297081,0.00084487
371.65,0.04354224,0.00082963
371.9,0.04382682,0.00081479
372.15,0.04397838,0.00079793
372.65,0.04453704,0.00077914
373.4,0.04536410,0.00075682
374.4,0.04636113,0.00072961
375.4,0.04706728,0.00069783
377.4,0.04873826,0.00066269
378.65,0.04948569,0.00062559
380.15,0.04998952,0.00058765
381.9,0.05060099,0.00054832
384.4,0.05129555,0.00050983
385.9,0.05184711,0.00047002
387.65,0.05251590,0.00043406
389.15,0.05297864,0.00039452
391.65,0.05377668,0.00035511
392.9,0.05410312,0.00031586
394.4,0.05444008,0.00029495
395.65,0.05466069,0.00025642
397.4,0.05485955,0.00021840
398.65,0.05492496,0.00018402
399.4,0.05494091,0.00015967
400.4,0.05494663,0.00013086
401.4,0.05494756,0.00011000
401.9,0.05494757,0.00009870
402.4,0.05494757,0.00008660
402.65,0.05494757,0.00007700
403.15,0.05494757,0.00006430
403.4,0.05494757,0.00005120
403.65,0.05494757,0.00004050
403.9,0.05494757,0.00002950
404.15,0.05494757,0.00002050
404.4,0.05494757,0.00001280
404.9,0.05494757,0.00000669
405.15,0.05494757,0.00000277
406.15,0.05494757,0.00000096
406.65,0.05494757,0.00000023
407.4,0.05494757,0.00000003
408.15,0.05494757,0.00000000
409.65,0.05494757,0.00000000
410.4,0.05494757,0.00000000
411.4,0.05494757,0.00000000
412.65,0.05494757,0.00000000
414.15,0.05494757,0.00000000
415.4,0.05494757,0.00000000
416.65,0.05494757,0.00000000
417.9,0.05494757,0.00000000
419.65,0.05494757,0.00000000
420.9,0.05494757,0.00000000
422.15,0.05494757,0.00000000
423.65,0.05494757,0.00000000
424.9,0.05494757,0.00000000
425.9,0.05494757,0.00000000
426.65,0.05494757,0.00000000
428.4,0.05494757,0.00000000
429.15,0.05494757,0.00000000
429.9,0.05494757,0.00000000
430.65,0.05494757,0.00000000
431.65,0.05494757,0.00000000
432.4,0.05494757,0.00000000
432.9,0.05494757,0.00000000
433.4,0.05494757,0.00000000
434.15,0.05494757,0.00000000
434.65,0.05494757,0.00000000
434.9,0.05494757,0.00000000
435.4,0.05494757,0.00000000
435.65,0.05494757,0.00000000
435.9,0.05494757,0.00000000
436.15,0.05494757,0.00000000
436.65,0.05494757,0.00000000
436.9,0.05494757,0.00000000
437.4,0.05494757,0.00000000
437.65,0.05494757,0.00000000
437.9,0.05494757,0.00000000
438.4,0.05494757,0.00000000
438.65,0.05494757,0.00000000
438.9,0.05494757,0.00000000
439.15,0.05494757,0.00000000
439.65,0.05494757,0.00000000
440.15,0.05494757,0.00000000
440.65,0.05494757,0.00000000
441.15,0.05494757,0.00000000
441.65,0.05494757,0.00000000
442.15,0.05494757,0.00000000
442.65,0.05494757,0.00000000
443.15,0.05494757,0.00000000
444.15,0.05494757,0.00000000
444.65,0.05494757,0.00000000
445.15,0.05494757,0.00000000
445.9,0.05494757,0.00000000
447.15,0.05494757,0.00000000
447.9,0.05494757,0.00000000
448.4,0.05494757,0.00000000
449.4,0.05494757,0.00000000
450.65,0.05494757,0.00000000
451.4,0.05494757,0.00000000
452.15,0.05494757,0.00000000
453.4,0.05494757,0.00000000
454.4,0.05494757,0.00000000
455.15,0.05494757,0.00000000
456.15,0.05494757,0.00000000
457.15,0.05494757,0.00000000
458.15,0.05494757,0.00000000
459.15,0.05494757,0.00000000
459.65,0.05494757,0.00000000
460.9,0.05494757,0.00000000
461.65,0.05494757,0.00000000
462.4,0.05494757,0.00000000
463.4,0.05494757,0.00000000
464.15,0.05494757,0.00000000
464.9,0.05494757,0.00000000
465.4,0.05494757,0.00000000
466.4,0.05494757,0.00000000
467.15,0.05494757,0.00000000
467.65,0.05494757,0.00000000
468.15,0.05494757,0.00000000
469.15,0.05494757,0.00000000
469.65,0.05494757,0.00000000
470.15,0.05494757,0.00000000
470.65,0.05494757,0.00000000
471.4,0.05494757,0.00000000
471.9,0.05494757,0.00000000
472.4,0.05494757,0.00000000
473.15,0.05494757,0.00000000
473.65,0.05494757,0.00000000
474.4,0.05494757,0.00000000
474.9,0.05494757,0.00000000
475.65,0.05494757,0.00000000
476.15,0.05494757,0.00000000
476.65,0.05494757,0.00000000
477.4,0.05494757,0.00000000
478.4,0.05494757,0.00000000
478.65,0.05494757,0.00000000
479.4,0.05494757,0.00000000
480.4,0.05494757,0.00000000
480.9,0.05494757,0.00000000
481.4,0.05494757,0.00000000
482.15,0.05494757,0.00000000
483.15,0.05494757,0.00000000
483.9,0.05494757,0.00000000
484.65,0.05494757,0.00000000
485.15,0.05494757,0.00000000
486.15,0.05494757,0.00000000
486.9,0.05494757,0.00000000
487.65,0.05494757,0.00000000
488.65,0.05494757,0.00000000
489.4,0.05494757,0.00000000
490.15,0.05494757,0.00000000
490.9,0.05494757,0.00000000
491.9,0.05494757,0.00000000
492.65,0.05494757,0.00000000
493.4,0.05494757,0.00000000
493.9,0.05494757,0.00000003
495.15,0.05494757,0.00000019
495.9,0.05494757,0.00000084
496.65,0.05494757,0.00000184
497.15,0.05494757,0.00000319
498.15,0.05494757,0.00000515
499.15,0.05494757,0.00000928
499.9,0.05494757,0.00001170
500.65,0.05494757,0.00001570
501.4,0.05494757,0.00002200
502.15,0.05494757,0.00002790
502.9,0.05494757,0.00003660
503.65,0.05494757,0.00004950
504.4,0.05494766,0.00006190
505.15,0.05494831,0.00008450
505.9,0.05495179,0.00010600
506.9,0.05497045,0.00013700
507.4,0.05498497,0.00015862
507.9,0.05500455,0.00019437
508.9,0.05506127,0.00023617
509.65,0.05515130,0.00029309
510.15,0.05518576,0.00035401
510.9,0.05527446,0.00042705
511.65,0.05540965,0.00050585
512.65,0.05558324,0.00062690
513.15,0.05570946,0.00074763
514.15,0.05608355,0.00088005
514.9,0.05635248,0.00102288
515.4,0.05668047,0.00120047
516.15,0.05715328,0.00133423
516.9,0.05781810,0.00148965
517.65,0.05829190,0.00165999
518.4,0.05906942,0.00180259
519.15,0.05997856,0.00196428
519.9,0.06121659,0.00215359
520.65,0.06254167,0.00230416
521.4,0.06413034,0.00247699
522.4,0.06641548,0.00266901
523.15,0.06904839,0.00285989
523.9,0.07167417,0.00304326
524.65,0.07455441,0.00317621
525.65,0.07869624,0.00338299
526.15,0.08127143,0.00355065
526.9,0.08418124,0.00373887
527.65,0.08756530,0.00395043
528.65,0.09252360,0.00413682
529.4,0.09564706,0.00435206
530.15,0.09919319,0.00456190
531.15,0.10473982,0.00478477
531.9,0.10810472,0.00499324
532.65,0.11191551,0.00520642
533.4,0.11618060,0.00542686
534.4,0.12189628,0.00563297
535.15,0.12601493,0.00581084
535.65,0.12806883,0.00599467
536.9,0.13603217,0.00617154
537.4,0.13864264,0.00634248
538.15,0.14322828,0.00648160
538.9,0.14830248,0.00666628
540.15,0.15616750,0.00683191
540.9,0.16132262,0.00698153
541.65,0.16666420,0.00716123
542.65,0.17433949,0.00732284
543.4,0.18011185,0.00745780
544.15,0.18607366,0.00763020
544.65,0.19032904,0.00778443
545.9,0.20065698,0.00791768
546.65,0.20715866,0.00805083
547.4,0.21378278,0.00819188
548.15,0.22050995,0.00838003
549.15,0.22960886,0.00848994
549.65,0.23420130,0.00863825
550.4,0.24112795,0.00875252
551.65,0.25277225,0.00884131
552.15,0.25742091,0.00895264
552.9,0.26445279,0.00903227
553.65,0.27151382,0.00909890
554.65,0.28097434,0.00914076
555.4,0.28808902,0.00917612
556.15,0.29525434,0.00919808
557.15,0.30480518,0.00918621
557.9,0.31198800,0.00919742
558.65,0.31917459,0.00918221
559.4,0.32634772,0.00915808
560.4,0.33590569,0.00912563
560.9,0.34066663,0.00908538
561.9,0.35009481,0.00903957
562.9,0.35943507,0.00898408
563.4,0.36419547,0.00892824
564.15,0.37108246,0.00887071
564.9,0.37787320,0.00881552
565.9,0.38676249,0.00874226
566.65,0.39330395,0.00866934
567.4,0.39974338,0.00860158
568.4,0.40791001,0.00850980
568.9,0.41220362,0.00842009
569.65,0.41837465,0.00833649
570.4,0.42447378,0.00822431
571.4,0.43250238,0.00811755
572.15,0.43845116,0.00801647
572.9,0.44434343,0.00788551
573.9,0.45196988,0.00775444
574.65,0.45774185,0.00763668
575.4,0.46346347,0.00748147
576.15,0.46929511,0.00735965
577.15,0.47658518,0.00720456
577.9,0.48209450,0.00706651
578.65,0.48773549,0.00691689
579.65,0.49462750,0.00675873
580.4,0.49983949,0.00661922
581.15,0.50520407,0.00644777
581.9,0.50995065,0.00628990
583.15,0.51803583,0.00613064
583.9,0.52300588,0.00597075
584.65,0.52729899,0.00581087
585.9,0.53433279,0.00564945
586.65,0.53877681,0.00549750
587.4,0.54254143,0.00532225
587.9,0.54536641,0.00516670
589.15,0.55106242,0.00499297
589.9,0.55472669,0.00483102
590.65,0.55801389,0.00466418
591.65,0.56201328,0.00448737
592.4,0.56510386,0.00432324
593.15,0.56781519,0.00416625
593.9,0.57055262,0.00398933
594.9,0.57406618,0.00384055
595.65,0.57660997,0.00368663
596.4,0.57908153,0.00352572
597.65,0.58305023,0.00338930
598.4,0.58546519,0.00325900
599.15,0.58742544,0.00311518
599.65,0.58898441,0.00300231
600.9,0.59240605,0.00286822
601.65,0.59435120,0.00277182
602.15,0.59560488,0.00266479
603.4,0.59859743,0.00257571
604.15,0.60019653,0.00250045
604.65,0.60139482,0.00242143
605.65,0.60341699,0.00236014
606.65,0.60543103,0.00229855
607.4,0.60693450,0.00223991
607.9,0.60791459,0.00218664
609.15,0.61012446,0.00213486
609.9,0.61151073,0.00208697
610.65,0.61282684,0.00203619
611.4,0.61413650,0.00200629
612.4,0.61589787,0.00195716
613.4,0.61765900,0.00192060
614.15,0.61899535,0.00188818
615.15,0.62079491,0.00185723
615.9,0.62215760,0.00182805
616.65,0.62352940,0.00181113
617.4,0.62490777,0.00178376
618.4,0.62677154,0.00176914
619.15,0.62813126,0.00175468
620.15,0.62997813,0.00174040
621.15,0.63177195,0.00172637
621.9,0.63311164,0.00171949
622.4,0.63398530,0.00170952
623.65,0.63616841,0.00170052
624.4,0.63743833,0.00168547
625.15,0.63869616,0.00167925
625.9,0.63993616,0.00166899
627.15,0.64194843,0.00165679
627.65,0.64272228,0.00164621
628.65,0.64436375,0.00162837
629.65,0.64596653,0.00161088
630.4,0.64716527,0.00159434
631.15,0.64836126,0.00157232
631.9,0.64955421,0.00155256
633.15,0.65149589,0.00153121
633.65,0.65227999,0.00151155
634.4,0.65344950,0.00149229
635.4,0.65494323,0.00147366
636.4,0.65625296,0.00145630
636.9,0.65704346,0.00144663
637.65,0.65814112,0.00143343
638.9,0.65992628,0.00142111
639.4,0.66067258,0.00141097
640.15,0.66164732,0.00140485
641.4,0.66329971,0.00139624
641.9,0.66397885,0.00138647
642.9,0.66520387,0.00138119
643.65,0.66613385,0.00137380
644.65,0.66736160,0.00136698
645.4,0.66827940,0.00136021
646.4,0.66950714,0.00135565
647.15,0.67041231,0.00135281
648.4,0.67196617,0.00135916
649.65,0.67373208,0.00137196
650.4,0.67470283,0.00137436
650.9,0.67535094,0.00138130
653.15,0.67831090,0.00139341
653.65,0.67899610,0.00140251
654.4,0.68003989,0.00142326
655.4,0.68135919,0.00143920
656.15,0.68244315,0.00145533
656.9,0.68347838,0.00147357
657.65,0.68452303,0.00149281
658.9,0.68621952,0.00151226
659.9,0.68765528,0.00153139
662.9,0.69208603,0.00154988
663.15,0.69250556,0.00156730
664.4,0.69460646,0.00158090
665.15,0.69584444,0.00158735
666.4,0.69792548,0.00160363
667.15,0.69926010,0.00161350
667.9,0.70057729,0.00161919
668.4,0.70152802,0.00162354
669.65,0.70375829,0.00162546
670.4,0.70512787,0.00162804
670.9,0.70600480,0.00163040
672.15,0.70825219,0.00163303
672.65,0.70914811,0.00164125
673.9,0.71137128,0.00164502
674.4,0.71225322,0.00164554
677.65,0.71781817,0.00164882
679.65,0.72109264,0.00164061
680.4,0.72229258,0.00162679
680.65,0.72273420,0.00161798
682.65,0.72589875,0.00160870
686.15,0.73108162,0.00159320
687.15,0.73257791,0.00157880
687.9,0.73366365,0.00155773
688.65,0.73470905,0.00154268
689.9,0.73660153,0.00152768
690.4,0.73732977,0.00150925
691.15,0.73855313,0.00148786
692.15,0.74001967,0.00147406
694.65,0.74364666,0.00145559
695.4,0.74482572,0.00144320
696.15,0.74590581,0.00143752
696.4,0.74622576,0.00142605
698.15,0.74866717,0.00142023
699.4,0.75041194,0.00140493
700.4,0.75174209,0.00140528
701.65,0.75341520,0.00141055
702.4,0.75438302,0.00141391
703.15,0.75539380,0.00142305
704.15,0.75678490,0.00143404
704.9,0.75769945,0.00144214
705.65,0.75858266,0.00145159
706.9,0.76032244,0.00145539
707.65,0.76125456,0.00146507
708.4,0.76230789,0.00147652
709.4,0.76385559,0.00148333
710.4,0.76516016,0.00149446
711.15,0.76623349,0.00150880
711.9,0.76722570,0.00152175
712.9,0.76881805,0.00153544
713.9,0.77045157,0.00154696
714.4,0.77124851,0.00155991
715.65,0.77338920,0.00157267
716.65,0.77510188,0.00158796
717.15,0.77597636,0.00159398
718.15,0.77770685,0.00160901
719.15,0.77944818,0.00162004
719.65,0.78032179,0.00162512
720.4,0.78165898,0.00163447
721.65,0.78387076,0.00163808
722.4,0.78519308,0.00163231
723.15,0.78646484,0.00163753
724.4,0.78867802,0.00163611
725.15,0.79002254,0.00163696
725.9,0.79127085,0.00162954
726.9,0.79298487,0.00161919
727.65,0.79423026,0.00160764
727.9,0.79467800,0.00159465
729.15,0.79663509,0.00157915
730.4,0.79870411,0.00156063
731.15,0.79982735,0.00154237
731.4,0.80021214,0.00152294
732.65,0.80210446,0.00150320
733.9,0.80399093,0.00148206
735.4,0.80606165,0.00146122
736.15,0.80715354,0.00144060
736.9,0.80819608,0.00142216
737.9,0.80954354,0.00140152
738.65,0.81057650,0.00138009
739.9,0.81224308,0.00136308
740.65,0.81318737,0.00134426
740.9,0.81352131,0.00132700
742.4,0.81541604,0.00130493
744.15,0.81753701,0.00129097
744.65,0.81813736,0.00127290
745.65,0.81931541,0.00126029
746.65,0.82049006,0.00124610
747.4,0.82136737,0.00123288
748.15,0.82224120,0.00121960
749.4,0.82369764,0.00121056
749.9,0.82427813,0.00119893
750.9,0.82545011,0.00118958
751.9,0.82662128,0.00118174
752.65,0.82749966,0.00117335
753.4,0.82837576,0.00116528
754.65,0.82982593,0.00116054
755.4,0.83068906,0.00115437
755.9,0.83126943,0.00114938
756.9,0.83240068,0.00114673
757.9,0.83353278,0.00114439
758.65,0.83437840,0.00114279
759.4,0.83522637,0.00114097
760.4,0.83635047,0.00113950
761.4,0.83746880,0.00113788
762.15,0.83830759,0.00113593
763.15,0.83942663,0.00113342
763.9,0.84026668,0.00113095
764.65,0.84111715,0.00112836
765.4,0.84194165,0.00112560
766.65,0.84334340,0.00112375
767.4,0.84421110,0.00112287
767.9,0.84477025,0.00112360
769.15,0.84618942,0.00112557
769.9,0.84703905,0.00113100
770.65,0.84788768,0.00113614
771.9,0.84929013,0.00114331
772.65,0.85013554,0.00115100
773.4,0.85097405,0.00115950
774.4,0.85208262,0.00116844
775.15,0.85289889,0.00117987
775.9,0.85372397,0.00118939
776.9,0.85482004,0.00119771
777.65,0.85563849,0.00120722
778.4,0.85647435,0.00121567
779.15,0.85732529,0.00122468
780.4,0.85879031,0.00123135
781.15,0.85970377,0.00123873
781.9,0.86067025,0.00124491
783.15,0.86227168,0.00125039
783.65,0.86293946,0.00125591
784.4,0.86395461,0.00126042
785.65,0.86566776,0.00126384
786.15,0.86635652,0.00126622
787.15,0.86780641,0.00126188
788.4,0.86955058,0.00126370
789.15,0.87057157,0.00125914
789.65,0.87127636,0.00126078
790.9,0.87295709,0.00125732
791.65,0.87399394,0.00125315
792.4,0.87500673,0.00125021
793.15,0.87600597,0.00124607
794.15,0.87732056,0.00124041
794.9,0.87828941,0.00123230
795.65,0.87925809,0.00122850
796.65,0.88051091,0.00121836
799.15,0.88357696,0.00120737
800.9,0.88565414,0.00119528
801.15,0.88589984,0.00118262
802.4,0.88732623,0.00116572
803.15,0.88805202,0.00114875
804.15,0.88919567,0.00113252
804.9,0.88993889,0.00111228
805.65,0.89068405,0.00109214
806.4,0.89147103,0.00106967
807.15,0.89225995,0.00104778
808.15,0.89331381,0.00102503
808.9,0.89410387,0.00100244
809.4,0.89468935,0.00097850
810.9,0.89625157,0.00095634
811.4,0.89676905,0.00093808
813.65,0.89906418,0.00091737
815.65,0.90108478,0.00089963
817.65,0.90300451,0.00088184
817.9,0.90323029,0.00086447
820.4,0.90545690,0.00085254
822.9,0.90751362,0.00083064
823.9,0.90827400,0.00081518
825.4,0.90937008,0.00079890
826.15,0.90990678,0.00078143
826.9,0.91041128,0.00075977
827.9,0.91107088,0.00074153
828.9,0.91166832,0.00072349
829.9,0.91231720,0.00069901
830.65,0.91285969,0.00068136
831.4,0.91332913,0.00066476
832.65,0.91416964,0.00064784
833.15,0.91440313,0.00063157
834.15,0.91504033,0.00061724
835.15,0.91566213,0.00060938
835.9,0.91604357,0.00059628
836.65,0.91645053,0.00058941
837.65,0.91697200,0.00058175
838.4,0.91737907,0.00058044
839.15,0.91769681,0.00057779
839.9,0.91809046,0.00056659
840.4,0.91835555,0.00056643
841.15,0.91870141,0.00057071
842.9,0.91962843,0.00057449
843.4,0.91990511,0.00057480
844.4,0.92043456,0.00058036
845.65,0.92110770,0.00058775
850.9,0.92396463,0.00060351
851.9,0.92463980,0.00061336
852.4,0.92489515,0.00062483
852.9,0.92520696,0.00063880
853.65,0.92561068,0.00065161
855.65,0.92699581,0.00066460
856.9,0.92779446,0.00067376
857.15,0.92788138,0.00069082
857.4,0.92804511,0.00069964
860.15,0.93002970,0.00070934
861.9,0.93135734,0.00072751
862.65,0.93190646,0.00073643
863.4,0.93249686,0.00075191
864.15,0.93316196,0.00076842
865.4,0.93431701,0.00077803
866.15,0.93500899,0.00078269
866.65,0.93548618,0.00078082
867.9,0.93662855,0.00077908
868.4,0.93708552,0.00077727
869.4,0.93798379,0.00077690
869.9,0.93838798,0.00076300
871.15,0.93953612,0.00075299
871.9,0.94012161,0.00074575
873.15,0.94113571,0.00073739
873.65,0.94162988,0.00072387
874.4,0.94222107,0.00070615
875.4,0.94322338,0.00068536
876.15,0.94397963,0.00066296
876.9,0.94459234,0.00063517
878.15,0.94544165,0.00060402
878.9,0.94590738,0.00057269
879.4,0.94613749,0.00054166
880.65,0.94685153,0.00051344
881.4,0.94724712,0.00048464
881.9,0.94739192,0.00045695
883.15,0.94782737,0.00043234
883.9,0.94793079,0.00040245
884.65,0.94824024,0.00037780
885.65,0.94856957,0.00035028
886.4,0.94875323,0.00031696
887.15,0.94885022,0.00029214
888.15,0.94898777,0.00026168
888.9,0.94892708,0.00023262
889.65,0.94894255,0.00021512
890.65,0.94895675,0.00019960
891.4,0.94891604,0.00019195
892.15,0.94884435,0.00018892
893.15,0.94876541,0.00018325
893.9,0.94869399,0.00018226
894.65,0.94862300,0.00018662
895.4,0.94858439,0.00019158
896.4,0.94851833,0.00019727
897.15,0.94850846,0.00020116
897.9,0.94852501,0.00020819
898.9,0.94859350,0.00021621
899.65,0.94868275,0.00023163
900.4,0.94880687,0.00024536
901.65,0.94919376,0.00026017
902.4,0.94936568,0.00027873
903.15,0.94966497,0.00029748
904.15,0.95003751,0.00031432
904.9,0.95034259,0.00033021
905.65,0.95071663,0.00034767
906.65,0.95113263,0.00036557
907.4,0.95150181,0.00038476
907.9,0.95165320,0.00040658
909.15,0.95231015,0.00042870
909.9,0.95271001,0.00045257
910.65,0.95306815,0.00047841
911.65,0.95364457,0.00050183
912.4,0.95404643,0.00052249
913.15,0.95442916,0.00054380
914.15,0.95498822,0.00055857
914.9,0.95540650,0.00057493
915.65,0.95581345,0.00058814
916.65,0.95637000,0.00059679
917.4,0.95680905,0.00060652
918.15,0.95726978,0.00061335
919.15,0.95792076,0.00062292
919.9,0.95843402,0.00062910
920.65,0.95896460,0.00064137
921.65,0.95967007,0.00064548
922.4,0.96024869,0.00064801
923.15,0.96080945,0.00065131
924.15,0.96152740,0.00065208
924.9,0.96211500,0.00065274
925.65,0.96266853,0.00065307
926.65,0.96337206,0.00065208
927.4,0.96395863,0.00065116
927.9,0.96427035,0.00064972
928.9,0.96495938,0.00064834
929.9,0.96565613,0.00064648
930.65,0.96617640,0.00064366
931.65,0.96684767,0.00064012
932.4,0.96734168,0.00063566
933.15,0.96782532,0.00063033
934.15,0.96843183,0.00062636
934.9,0.96886168,0.00061905
935.4,0.96916098,0.00061340
936.65,0.96985463,0.00060809
937.4,0.97024472,0.00060072
