T(K),a,da/dT
320.15,0.00000000,
322.4,0.00061720,0.00027431
324.9,0.00138964,0.00031319
329.15,0.00290388,0.00035633
331.9,0.00401206,0.00039478
334.9,0.00532942,0.00043065
337.9,0.00675375,0.00046137
340.65,0.00814804,0.00048684
344.4,0.01017763,0.00050820
346.65,0.01146266,0.00052547
348.65,0.01264550,0.00054058
350.15,0.01355719,0.00055617
351.4,0.01433289,0.00057330
352.9,0.01528298,0.00059336
353.65,0.01576600,0.00061549
354.15,0.01609102,0.00063810
354.4,0.01625444,0.00066153
354.65,0.01641848,0.00068380
355.65,0.01708093,0.00070264
357.15,0.01809432,0.00071804
358.9,0.01930894,0.00073397
360.4,0.02038086,0.00075043
361.9,0.02148501,0.00076574
364.4,0.02341057,0.00077821
365.65,0.02442146,0.00078913
366.9,0.02547056,0.00079998
368.15,0.02656205,0.00080841
369.65,0.02792876,0.00081470
370.4,0.02863202,0.00081885
371.15,0.02934379,0.00082138
371.65,0.02982066,0.00082275
372.15,0.03029807,0.00082373
372.4,0.03052370,0.00082559
372.65,0.03073611,0.00082769
372.9,0.03096136,0.00082895
373.15,0.03119944,0.00082803
373.9,0.03191265,0.00082436
375.15,0.03304107,0.00081816
376.9,0.03459495,0.00080996
378.15,0.03572733,0.00079863
379.9,0.03721891,0.00078555
381.4,0.03842323,0.00077201
383.65,0.04011946,0.00075587
385.4,0.04137488,0.00073768
386.9,0.04240950,0.00071982
388.65,0.04360342,0.00070087
391.15,0.04537818,0.00068194
392.4,0.04628235,0.00066495
394.15,0.04752867,0.00065110
395.4,0.04836311,0.00063500
397.15,0.04942714,0.00061701
398.15,0.04998344,0.00059864
399.15,0.05051599,0.00058037
400.15,0.05099615,0.00056142
401.15,0.05145599,0.00054142
401.65,0.05169633,0.00052344
402.15,0.05191780,0.00050737
402.4,0.05202038,0.00049407
402.9,0.05223583,0.00047685
403.15,0.05233691,0.00045888
403.4,0.05243839,0.00044165
403.65,0.05254079,0.00042100
404.15,0.05276481,0.00039692
404.9,0.05309036,0.00037290
405.4,0.05330569,0.00035025
405.9,0.05351484,0.00032951
406.9,0.05388753,0.00031313
407.9,0.05422596,0.00029899
408.9,0.05455192,0.00028802
409.9,0.05488273,0.00028389
411.15,0.05530406,0.00027897
412.65,0.05585603,0.00027807
413.9,0.05612878,0.00028249
414.9,0.05629734,0.00028998
416.15,0.05652564,0.00030113
418.15,0.05674759,0.00031096
419.4,0.05671630,0.00032334
420.4,0.05670082,0.00033445
421.65,0.05668732,0.00034839
423.65,0.05670047,0.00036113
424.4,0.05676142,0.00037333
425.4,0.05688382,0.00038736
426.4,0.05704606,0.00040284
427.9,0.05755607,0.00041901
428.4,0.05772497,0.00043382
429.15,0.05803766,0.00045156
429.9,0.05844164,0.00046803
430.9,0.05908953,0.00048796
431.4,0.05945347,0.00051141
431.9,0.05979897,0.00053350
432.4,0.06018327,0.00055909
433.15,0.06076087,0.00058787
433.4,0.06097048,0.00061726
433.9,0.06137046,0.00064728
434.15,0.06156348,0.00067837
434.4,0.06175843,0.00070708
434.65,0.06195527,0.00073559
434.9,0.06215397,0.00076373
435.15,0.06234406,0.00078567
435.4,0.06255695,0.00081089
435.65,0.06276830,0.00083192
435.9,0.06296734,0.00085114
436.15,0.06317955,0.00086818
436.4,0.06338531,0.00088110
436.65,0.06359857,0.00089879
437.15,0.06402850,0.00091309
437.4,0.06424540,0.00093009
437.65,0.06446576,0.00094160
438.15,0.06491987,0.00095456
438.4,0.06514834,0.00096796
438.9,0.06562286,0.00098088
439.4,0.06611215,0.00099198
439.9,0.06660019,0.00100337
440.4,0.06713481,0.00101425
441.15,0.06790495,0.00102165
441.65,0.06845287,0.00102986
442.4,0.06930944,0.00104002
443.4,0.07041195,0.00104810
444.15,0.07131507,0.00106050
444.9,0.07220245,0.00107178
445.4,0.07283400,0.00108379
446.65,0.07429948,0.00109666
447.65,0.07547533,0.00110907
448.4,0.07634567,0.00112024
449.4,0.07750032,0.00113093
450.65,0.07888682,0.00114067
451.4,0.07973070,0.00114833
452.15,0.08053760,0.00115572
453.15,0.08160359,0.00115977
454.4,0.08295804,0.00116438
455.15,0.08377624,0.00116825
456.15,0.08485924,0.00117059
457.4,0.08633758,0.00117481
458.15,0.08722273,0.00117641
458.9,0.08812888,0.00117933
459.65,0.08905953,0.00118032
460.9,0.09061109,0.00118488
461.4,0.09122721,0.00118987
462.15,0.09214508,0.00119593
462.65,0.09276076,0.00120252
463.9,0.09426188,0.00121126
464.4,0.09485699,0.00121948
464.9,0.09545035,0.00122955
465.4,0.09603069,0.00123936
466.4,0.09723869,0.00124895
466.9,0.09784371,0.00125788
467.4,0.09845608,0.00126735
468.15,0.09939403,0.00127210
468.65,0.10002799,0.00127575
469.15,0.10067385,0.00127656
469.65,0.10132614,0.00127716
470.4,0.10231670,0.00127642
470.9,0.10298477,0.00127507
471.4,0.10365761,0.00127352
471.9,0.10433898,0.00127096
472.65,0.10536162,0.00126886
473.15,0.10604558,0.00126672
473.65,0.10672078,0.00126662
474.4,0.10774199,0.00126564
475.15,0.10875453,0.00126328
475.65,0.10943327,0.00126351
476.15,0.11009349,0.00126023
477.15,0.11137963,0.00125778
477.65,0.11199554,0.00125548
478.4,0.11293927,0.00125371
478.9,0.11354912,0.00125025
479.9,0.11474204,0.00124738
480.4,0.11533152,0.00124398
481.15,0.11619948,0.00123946
481.9,0.11705439,0.00123444
482.9,0.11818249,0.00122826
483.65,0.11907033,0.00122096
484.4,0.11991956,0.00121348
485.4,0.12105910,0.00120531
486.15,0.12197164,0.00119736
486.9,0.12281889,0.00118870
487.65,0.12370361,0.00118152
488.65,0.12490462,0.00117560
489.4,0.12583508,0.00117202
489.9,0.12643720,0.00116794
490.9,0.12767474,0.00116562
491.9,0.12891206,0.00116551
492.65,0.12982299,0.00116624
493.15,0.13043164,0.00116847
494.4,0.13191213,0.00117241
495.15,0.13277931,0.00118003
495.9,0.13362928,0.00118425
496.4,0.13419167,0.00119532
497.4,0.13531122,0.00120461
498.4,0.13641732,0.00121266
498.9,0.13697357,0.00122697
499.4,0.13753070,0.00123973
500.65,0.13894067,0.00125323
501.15,0.13951065,0.00126643
501.9,0.14037500,0.00128128
502.9,0.14156480,0.00129545
503.4,0.14216486,0.00130991
504.15,0.14308142,0.00132658
504.9,0.14402195,0.00134194
505.65,0.14503374,0.00135678
506.4,0.14601334,0.00137445
506.9,0.14673996,0.00139062
507.65,0.14779667,0.00140644
508.65,0.14924685,0.00142185
509.15,0.15001921,0.00143729
509.9,0.15118147,0.00145245
510.9,0.15277416,0.00146767
511.4,0.15358587,0.00148277
512.15,0.15481191,0.00149797
512.65,0.15563612,0.00151332
513.65,0.15729299,0.00152855
514.15,0.15814186,0.00154584
514.9,0.15938894,0.00156214
515.9,0.16100370,0.00158037
516.65,0.16225527,0.00159750
517.4,0.16345685,0.00162203
517.9,0.16424874,0.00163876
518.9,0.16581515,0.00166364
519.65,0.16698055,0.00168846
520.15,0.16775664,0.00171678
520.9,0.16892330,0.00174361
522.15,0.17088068,0.00177559
522.65,0.17167096,0.00181096
523.4,0.17286920,0.00184942
524.4,0.17450083,0.00189185
525.4,0.17620220,0.00194173
525.9,0.17704968,0.00199184
526.65,0.17838656,0.00205441
527.9,0.18069381,0.00212730
528.4,0.18170265,0.00220157
528.9,0.18267184,0.00228108
529.9,0.18480218,0.00237663
530.9,0.18697223,0.00248091
531.65,0.18874685,0.00258823
532.15,0.18991063,0.00271179
533.4,0.19306101,0.00284152
533.9,0.19438558,0.00297961
534.65,0.19644800,0.00312443
535.4,0.19860726,0.00328083
536.65,0.20248656,0.00343919
537.15,0.20406198,0.00360545
538.15,0.20753940,0.00378093
538.9,0.21033571,0.00395835
539.65,0.21320274,0.00414077
540.4,0.21613350,0.00432356
541.15,0.21939954,0.00451464
542.15,0.22399027,0.00470861
542.9,0.22748971,0.00490781
543.65,0.23134136,0.00510500
544.65,0.23665906,0.00531357
545.15,0.23944429,0.00552026
545.9,0.24377967,0.00572627
546.65,0.24837952,0.00593323
547.65,0.25460352,0.00614253
548.15,0.25786510,0.00634441
549.15,0.26464888,0.00654485
549.9,0.26984466,0.00673550
550.9,0.27698059,0.00691572
551.4,0.28063987,0.00709200
552.15,0.28624979,0.00726246
553.15,0.29400501,0.00741306
553.9,0.29996515,0.00755461
554.65,0.30602874,0.00768839
555.15,0.31021672,0.00779981
556.4,0.32085965,0.00790277
557.15,0.32732725,0.00799612
557.9,0.33389114,0.00807465
558.9,0.34283983,0.00813195
559.65,0.34955819,0.00818285
560.4,0.35628104,0.00821742
561.15,0.36303557,0.00823778
562.15,0.37199051,0.00824284
562.9,0.37869156,0.00823929
563.65,0.38532979,0.00821785
564.65,0.39405193,0.00818374
565.4,0.40057373,0.00812932
566.15,0.40698281,0.00807404
566.9,0.41325787,0.00799527
567.9,0.42156160,0.00789978
568.65,0.42776977,0.00779432
569.4,0.43381318,0.00767936
570.4,0.44160808,0.00755251
571.15,0.44738298,0.00741248
571.9,0.45302736,0.00726566
572.4,0.45671443,0.00711826
573.65,0.46555746,0.00696003
574.4,0.47083222,0.00679747
575.15,0.47585496,0.00663139
575.9,0.48072280,0.00646118
576.9,0.48689983,0.00629052
577.4,0.49007181,0.00611753
578.15,0.49442200,0.00594450
579.4,0.50143058,0.00577349
579.9,0.50415865,0.00559935
580.9,0.50944826,0.00542288
581.9,0.51452125,0.00524706
582.65,0.51818715,0.00507820
583.4,0.52171212,0.00490989
583.9,0.52405684,0.00474424
585.15,0.52957834,0.00458020
585.9,0.53275900,0.00442210
586.65,0.53584774,0.00426325
587.9,0.54074114,0.00411189
588.4,0.54262772,0.00396319
589.4,0.54630685,0.00382055
589.9,0.54807051,0.00367247
590.9,0.55147809,0.00353728
591.9,0.55473183,0.00340061
592.65,0.55710166,0.00327186
593.65,0.56006088,0.00314488
594.4,0.56223427,0.00301582
595.15,0.56434853,0.00289889
595.65,0.56570956,0.00278572
596.9,0.56898053,0.00267242
597.65,0.57084766,0.00256532
598.15,0.57206085,0.00246465
599.4,0.57494553,0.00236716
600.15,0.57657912,0.00227717
600.9,0.57810947,0.00218896
601.4,0.57913427,0.00210505
602.65,0.58148403,0.00202184
603.4,0.58271644,0.00194814
604.15,0.58400823,0.00187595
605.4,0.58601724,0.00180522
605.9,0.58668247,0.00174499
606.9,0.58817919,0.00168481
607.4,0.58888821,0.00162751
608.65,0.59064287,0.00157266
609.4,0.59162631,0.00152673
610.15,0.59261738,0.00148013
611.15,0.59390868,0.00143767
611.65,0.59456118,0.00140574
612.65,0.59577609,0.00137485
613.4,0.59671036,0.00134830
614.4,0.59782471,0.00132391
615.15,0.59877747,0.00130787
615.9,0.59964765,0.00129834
616.9,0.60075627,0.00128654
617.65,0.60166572,0.00127894
618.4,0.60252999,0.00128122
619.15,0.60339808,0.00127728
620.4,0.60481235,0.00127432
620.9,0.60545480,0.00127318
621.65,0.60630840,0.00127196
622.9,0.60780220,0.00127062
623.65,0.60883853,0.00126929
624.4,0.60980011,0.00126649
625.4,0.61107072,0.00126524
626.4,0.61241298,0.00125855
626.9,0.61312029,0.00125910
627.65,0.61414540,0.00125075
628.65,0.61552558,0.00124423
629.65,0.61691242,0.00123776
630.4,0.61795991,0.00122598
631.4,0.61934219,0.00121338
632.15,0.62034148,0.00119989
632.9,0.62136953,0.00118689
633.65,0.62232626,0.00116565
634.65,0.62360894,0.00114895
635.4,0.62454843,0.00112981
636.15,0.62546645,0.00110320
637.4,0.62693943,0.00107999
637.9,0.62746540,0.00105704
638.9,0.62859565,0.00103181
639.9,0.62962392,0.00100458
640.65,0.63035220,0.00097980
641.4,0.63104290,0.00095658
642.15,0.63169623,0.00093189
643.15,0.63248300,0.00091158
643.9,0.63305776,0.00089243
644.65,0.63362359,0.00087844
645.9,0.63445978,0.00086365
646.4,0.63478662,0.00085575
647.4,0.63542674,0.00085108
647.9,0.63573171,0.00084687
649.15,0.63649310,0.00084828
649.9,0.63694685,0.00084933
650.65,0.63740475,0.00085784
651.65,0.63802983,0.00086522
652.4,0.63851591,0.00088001
653.15,0.63904603,0.00089477
654.15,0.63971694,0.00091236
654.9,0.64032277,0.00093243
655.65,0.64094286,0.00095503
656.4,0.64163785,0.00098048
657.65,0.64281501,0.00100519
658.4,0.64359997,0.00103356
659.15,0.64446046,0.00106199
660.15,0.64559093,0.00109028
660.9,0.64653971,0.00112000
661.65,0.64744634,0.00114813
662.65,0.64874501,0.00117532
663.65,0.65008935,0.00120110
664.15,0.65081796,0.00122516
664.9,0.65186714,0.00124529
666.15,0.65365593,0.00126246
666.65,0.65438259,0.00127949
667.65,0.65582470,0.00128569
668.65,0.65732900,0.00129623
669.4,0.65843228,0.00130053
670.15,0.65955116,0.00129767
670.9,0.66065960,0.00129341
672.15,0.66248542,0.00128194
672.9,0.66358935,0.00126751
673.65,0.66465795,0.00124961
674.65,0.66605153,0.00123285
675.4,0.66707010,0.00121256
676.15,0.66806222,0.00118823
677.4,0.66960207,0.00116340
678.15,0.67050563,0.00113947
678.65,0.67108801,0.00111449
679.4,0.67182862,0.00108888
680.65,0.67324445,0.00106389
681.4,0.67403292,0.00103721
682.15,0.67467708,0.00101234
683.15,0.67560001,0.00098770
683.9,0.67621106,0.00096454
684.65,0.67674510,0.00094318
685.65,0.67749089,0.00092142
686.4,0.67803303,0.00090751
687.4,0.67874332,0.00089634
687.9,0.67906270,0.00088467
688.9,0.67979988,0.00087780
689.65,0.68032864,0.00087334
690.65,0.68103522,0.00087570
691.65,0.68174564,0.00088009
692.4,0.68228388,0.00089188
693.4,0.68301430,0.00090031
694.15,0.68357673,0.00091244
695.15,0.68435406,0.00093329
695.65,0.68475714,0.00095358
696.65,0.68559841,0.00097679
697.65,0.68643914,0.00100421
698.4,0.68720534,0.00103001
699.15,0.68800757,0.00105746
700.4,0.68928202,0.00108378
700.9,0.68984382,0.00111007
701.65,0.69067074,0.00112993
702.9,0.69226223,0.00115688
703.4,0.69290827,0.00117639
704.15,0.69390535,0.00118869
705.15,0.69528233,0.00120571
706.15,0.69668536,0.00121713
706.9,0.69778312,0.00122481
707.65,0.69891658,0.00123061
708.65,0.70040432,0.00123099
709.4,0.70153478,0.00122605
710.15,0.70265537,0.00122050
711.4,0.70455377,0.00121388
712.15,0.70565900,0.00119914
712.9,0.70671001,0.00118456
714.15,0.70835129,0.00116725
714.65,0.70909452,0.00114966
715.4,0.71004874,0.00112621
716.15,0.71084914,0.00110174
716.9,0.71175765,0.00107607
717.9,0.71281925,0.00104982
718.9,0.71379192,0.00102083
719.9,0.71473726,0.00099070
720.65,0.71535023,0.00095921
721.4,0.71587362,0.00093027
722.65,0.71672362,0.00089783
723.15,0.71713844,0.00086946
723.9,0.71761997,0.00084632
724.9,0.71821660,0.00081823
725.9,0.71883839,0.00079858
726.65,0.71928271,0.00078300
727.4,0.71972752,0.00076036
728.4,0.72031004,0.00074603
729.15,0.72074876,0.00074330
729.9,0.72121063,0.00073416
730.9,0.72177274,0.00072978
731.65,0.72221518,0.00073141
732.4,0.72266377,0.00073336
733.65,0.72347442,0.00073871
734.15,0.72375767,0.00075058
735.15,0.72442903,0.00076413
735.65,0.72485293,0.00077198
736.9,0.72567661,0.00078677
737.65,0.72630020,0.00080325
738.4,0.72694624,0.00081837
739.4,0.72777612,0.00083489
740.15,0.72841859,0.00085130
740.9,0.72915956,0.00086773
742.15,0.73034234,0.00088503
742.9,0.73104329,0.00089912
743.65,0.73180835,0.00091288
744.65,0.73281007,0.00092871
745.4,0.73353942,0.00093848
746.15,0.73432105,0.00094677
746.9,0.73512581,0.00095524
748.4,0.73671166,0.00096358
748.9,0.73724708,0.00095918
749.65,0.73805312,0.00096037
750.9,0.73937846,0.00095578
751.4,0.73991420,0.00094589
752.4,0.74098300,0.00093977
753.4,0.74204218,0.00093090
754.15,0.74285715,0.00091790
754.9,0.74362542,0.00090636
755.9,0.74458655,0.00089640
756.65,0.74537341,0.00088318
757.4,0.74603448,0.00087344
758.15,0.74670114,0.00086453
759.4,0.74771646,0.00085766
759.9,0.74817307,0.00084747
760.65,0.74871318,0.00084055
761.9,0.74957982,0.00083794
762.65,0.75010356,0.00083506
763.4,0.75053447,0.00083449
764.4,0.75118702,0.00083673
765.15,0.75163645,0.00083720
765.9,0.75209481,0.00083975
766.65,0.75255348,0.00084573
767.65,0.75319930,0.00085003
768.4,0.75367674,0.00085776
769.15,0.75421613,0.00086289
770.4,0.75510891,0.00087525
770.9,0.75553042,0.00088562
771.65,0.75611341,0.00090141
772.9,0.75718421,0.00091401
773.65,0.75793050,0.00093312
774.15,0.75842612,0.00095588
775.4,0.75973075,0.00097842
776.15,0.76058314,0.00100628
776.9,0.76139507,0.00103260
778.15,0.76281146,0.00106082
778.65,0.76344135,0.00108955
779.4,0.76430321,0.00111794
780.15,0.76519224,0.00114478
781.4,0.76668959,0.00116968
781.9,0.76730953,0.00119351
782.65,0.76820164,0.00121439
783.9,0.76978959,0.00123046
784.65,0.77074855,0.00124892
785.4,0.77170420,0.00126032
786.4,0.77305771,0.00126397
787.15,0.77407158,0.00126469
787.9,0.77510850,0.00126319
789.15,0.77687827,0.00125287
789.65,0.77758710,0.00124417
790.4,0.77867029,0.00123254
791.15,0.77974640,0.00121271
792.4,0.78152669,0.00119298
792.9,0.78220607,0.00117119
793.9,0.78361632,0.00114890
794.9,0.78493593,0.00112185
795.65,0.78591776,0.00109388
796.4,0.78690220,0.00106342
798.4,0.78927721,0.00103075
798.9,0.78982760,0.00099768
799.9,0.79083980,0.00096153
800.9,0.79183986,0.00092589
801.4,0.79225858,0.00088956
802.65,0.79329612,0.00085196
803.4,0.79389319,0.00081546
804.15,0.79440672,0.00077759
805.15,0.79498363,0.00074092
805.9,0.79539867,0.00070599
806.65,0.79581223,0.00067255
807.4,0.79615382,0.00063846
808.4,0.79653228,0.00060802
809.4,0.79691937,0.00057832
810.15,0.79716773,0.00055072
811.15,0.79748292,0.00052753
811.9,0.79771177,0.00050828
812.65,0.79795038,0.00049320
813.65,0.79827943,0.00047964
814.4,0.79852336,0.00047512
815.15,0.79879275,0.00046678
816.15,0.79913875,0.00046328
817.15,0.79951035,0.00046626
817.65,0.79971592,0.00047223
818.9,0.80020210,0.00048166
819.65,0.80051831,0.00049157
820.15,0.80073673,0.00050641
821.4,0.80129663,0.00052813
822.15,0.80168083,0.00054944
822.9,0.80206712,0.00057529
823.65,0.80247383,0.00060393
824.65,0.80304872,0.00063301
825.4,0.80350394,0.00066361
826.15,0.80403370,0.00069397
826.9,0.80447474,0.00072499
827.9,0.80516941,0.00075452
828.65,0.80574767,0.00078401
829.65,0.80649789,0.00081285
830.4,0.80711789,0.00083903
831.15,0.80774717,0.00086469
832.15,0.80863293,0.00088784
832.9,0.80938911,0.00090940
833.65,0.81014306,0.00092841
834.65,0.81122367,0.00094485
835.4,0.81208300,0.00096255
836.15,0.81294441,0.00097554
837.4,0.81445133,0.00098756
837.9,0.81505602,0.00099882
838.65,0.81597464,0.00100396
839.9,0.81749415,0.00101382
840.65,0.81839502,0.00101987
841.15,0.81899907,0.00102204
841.9,0.81987674,0.00102448
843.15,0.82129315,0.00102424
843.9,0.82211280,0.00102265
844.65,0.82290932,0.00101897
845.65,0.82390870,0.00101056
846.65,0.82489776,0.00100179
847.15,0.82541188,0.00098992
848.4,0.82656082,0.00097547
848.9,0.82702251,0.00096036
849.9,0.82795593,0.00094321
850.65,0.82859764,0.00092565
851.65,0.82947136,0.00090727
852.4,0.83012416,0.00088885
853.4,0.83095782,0.00087052
854.15,0.83157375,0.00085183
854.65,0.83198356,0.00083352
855.65,0.83277658,0.00081600
856.65,0.83355538,0.00079956
857.4,0.83412875,0.00078404
858.4,0.83487952,0.00077133
859.15,0.83543187,0.00075797
859.9,0.83597701,0.00074467
861.15,0.83686471,0.00073433
861.65,0.83721883,0.00072561
862.4,0.83774388,0.00071633
863.4,0.83843592,0.00071026
864.15,0.83894696,0.00070431
864.9,0.83944912,0.00069868
865.4,0.83978209,0.00069479
866.65,0.84058135,0.00069154
867.4,0.84105017,0.00068834
868.15,0.84151217,0.00068591
869.15,0.84212402,0.00068417
869.9,0.84259718,0.00068186
870.65,0.84304839,0.00067973
871.65,0.84369087,0.00067754
872.4,0.84415532,0.00067538
873.15,0.84465832,0.00067258
874.15,0.84532247,0.00066866
874.9,0.84583215,0.00066542
875.65,0.84635807,0.00066151
876.9,0.84724186,0.00065753
877.65,0.84778266,0.00065354
878.4,0.84832779,0.00064906
879.65,0.84923642,0.00064540
880.15,0.84959764,0.00064117
880.9,0.85014400,0.00063670
881.9,0.85084144,0.00063287
882.9,0.85153050,0.00062760
883.4,0.85186696,0.00062361
884.65,0.85269727,0.00061810
885.4,0.85316888,0.00061424
886.15,0.85361487,0.00060882
887.15,0.85422104,0.00060339
887.9,0.85465495,0.00059817
888.9,0.85522094,0.00059284
889.65,0.85563644,0.00058636
890.65,0.85617234,0.00058004
891.4,0.85657235,0.00057392
892.4,0.85707482,0.00056719
893.15,0.85743960,0.00056117
893.65,0.85768999,0.00055524
894.9,0.85828753,0.00055074
895.65,0.85865182,0.00054691
896.4,0.85901392,0.00054440
897.4,0.85952129,0.00054311
898.15,0.85990638,0.00054402
898.9,0.86028647,0.00055055
899.65,0.86068245,0.00055414
900.65,0.86122929,0.00056104
901.4,0.86161850,0.00057187
902.15,0.86202184,0.00058259
903.15,0.86257131,0.00059406
904.15,0.86310308,0.00060776
904.65,0.86337697,0.00062224
905.9,0.86407271,0.00063731
906.4,0.86435614,0.00065299
